SpectraSuite Datei
++++++++++++++++++++++++++++++++++++
Datum: Mon Feb 18 14:43:05 CET 2019
Benutzer: tu65fis
Dark-Spektrum vorhanden: Ja
Referenz-Spektrum vorhanden: Ja
Zahl der probierten Teilspektren: 1
Spektrometer: USB2G47534
Integrationszeit (usec): 10000 (USB2G47534)
Spektren Durchschnitt berechnet: 1 (USB2G47534)
Boxcar Glättung: 0 (USB2G47534)
Dunkelstromkorrektur: Nein (USB2G47534)
Puls/Lampe aktiviert: Nein (USB2G47534)
Correct for Detector Non-linearity: Nein (USB2G47534)
Streulichtkorrektur: Nein (USB2G47534)
Anzahl Pixel in verarbeitetem Spektrum: 651
>>>>>Begin Processed Spectral Data<<<<<
350,00	-44,424
351,00	41,200
352,00	-99,662
353,00	-59,214
354,00	-46,510
355,00	-81,539
356,00	-3,569
357,00	-6,499
358,00	43,463
359,00	-8,861
360,00	-74,996
361,00	-67,407
362,00	24,333
363,00	-33,465
364,00	23,993
365,00	-55,188
366,00	-37,544
367,00	10,786
368,00	10,645
369,00	11,400
370,00	-57,823
371,00	-40,058
372,00	-23,808
373,00	-3,472
374,00	11,269
375,00	-44,479
376,00	36,966
377,00	26,006
378,00	4,511
379,00	60,287
380,00	12,585
381,00	4,758
382,00	32,608
383,00	42,017
384,00	-24,230
385,00	-63,972
386,00	-61,055
387,00	-64,409
388,00	-15,819
389,00	-12,846
390,00	-18,144
391,00	6,691
392,00	-13,644
393,00	-78,136
394,00	-68,591
395,00	11,562
396,00	22,910
397,00	56,618
398,00	-7,682
399,00	-12,302
400,00	-37,452
401,00	30,080
402,00	-38,087
403,00	-27,089
404,00	-23,645
405,00	-1,150
406,00	-18,381
407,00	29,778
408,00	24,834
409,00	31,155
410,00	-38,943
411,00	19,580
412,00	-5,048
413,00	4,008
414,00	-21,349
415,00	-13,672
416,00	-0,649
417,00	-18,542
418,00	-6,853
419,00	32,876
420,00	-17,710
421,00	-165,347
422,00	-48,474
423,00	-1,584
424,00	55,378
425,00	-9,805
426,00	19,938
427,00	23,117
428,00	-36,195
429,00	17,164
430,00	9,924
431,00	22,478
432,00	-7,972
433,00	14,139
434,00	63,220
435,00	4,189
436,00	14,757
437,00	4,226
438,00	-29,173
439,00	-18,714
440,00	8,038
441,00	43,223
442,00	2,448
443,00	-13,541
444,00	30,766
445,00	-51,763
446,00	-79,837
447,00	-8,562
448,00	34,492
449,00	6,613
450,00	28,469
451,00	12,163
452,00	-3,085
453,00	2,276
454,00	40,542
455,00	-1,288
456,00	-30,182
457,00	8,888
458,00	-6,554
459,00	-4,224
460,00	-35,955
461,00	-8,636
462,00	66,652
463,00	-7,418
464,00	6,305
465,00	10,908
466,00	9,593
467,00	-11,324
468,00	-19,988
469,00	5,502
470,00	37,469
471,00	5,249
472,00	-33,321
473,00	-9,679
474,00	4,059
475,00	-9,096
476,00	39,853
477,00	-12,530
478,00	10,149
479,00	-2,053
480,00	23,957
481,00	20,090
482,00	0,333
483,00	-41,989
484,00	-3,637
485,00	6,520
486,00	28,303
487,00	-2,292
488,00	-2,190
489,00	-17,848
490,00	21,284
491,00	-6,455
492,00	-1,637
493,00	7,361
494,00	-8,928
495,00	-7,882
496,00	-13,151
497,00	-3,647
498,00	-8,853
499,00	13,922
500,00	-17,247
501,00	-8,209
502,00	0,820
503,00	-5,843
504,00	63,662
505,00	11,671
506,00	1,111
507,00	8,563
508,00	-4,871
509,00	3,745
510,00	2,651
511,00	12,786
512,00	4,543
513,00	-12,099
514,00	2,543
515,00	7,459
516,00	8,833
517,00	0,092
518,00	-6,120
519,00	2,234
520,00	-16,552
521,00	1,299
522,00	-0,341
523,00	-1,562
524,00	4,020
525,00	0,900
526,00	-1,702
527,00	-2,434
528,00	0,309
529,00	-2,898
530,00	-0,769
531,00	0,026
532,00	-0,212
533,00	0,454
534,00	-0,143
535,00	-0,352
536,00	-0,117
537,00	-0,034
538,00	-0,092
539,00	-0,108
540,00	-0,066
541,00	-0,007
542,00	-0,120
543,00	-0,045
544,00	-0,077
545,00	-0,054
546,00	-0,031
547,00	0,003
548,00	0,020
549,00	0,024
550,00	-0,125
551,00	-0,017
552,00	-0,015
553,00	-0,066
554,00	0,050
555,00	-0,067
556,00	0,019
557,00	0,042
558,00	0,093
559,00	-0,003
560,00	-0,227
561,00	-0,157
562,00	-0,031
563,00	-0,090
564,00	-0,003
565,00	-0,037
566,00	-0,109
567,00	-0,025
568,00	-0,144
569,00	0,053
570,00	0,074
571,00	0,106
572,00	-0,025
573,00	0,141
574,00	-0,006
575,00	-0,051
576,00	0,111
577,00	-0,047
578,00	-0,096
579,00	-0,209
580,00	0,024
581,00	0,074
582,00	-0,039
583,00	-0,013
584,00	-0,097
585,00	-0,089
586,00	0,156
587,00	-0,052
588,00	-0,142
589,00	0,047
590,00	-0,011
591,00	-0,052
592,00	-0,053
593,00	0,028
594,00	0,168
595,00	-0,001
596,00	-0,085
597,00	-0,112
598,00	-0,003
599,00	-0,138
600,00	0,063
601,00	-0,117
602,00	0,039
603,00	0,048
604,00	-0,065
605,00	-0,016
606,00	0,036
607,00	0,001
608,00	0,134
609,00	-0,005
610,00	-0,166
611,00	-0,088
612,00	-0,163
613,00	0,140
614,00	-0,058
615,00	0,006
616,00	-0,113
617,00	0,018
618,00	-0,018
619,00	-0,011
620,00	-0,154
621,00	0,095
622,00	-0,056
623,00	-0,016
624,00	0,008
625,00	0,004
626,00	0,118
627,00	-0,151
628,00	-0,049
629,00	0,020
630,00	-0,002
631,00	-0,029
632,00	0,023
633,00	-0,116
634,00	-0,000
635,00	0,004
636,00	-0,033
637,00	0,095
638,00	-0,024
639,00	-0,063
640,00	0,094
641,00	-0,068
642,00	0,019
643,00	-0,023
644,00	-0,169
645,00	0,033
646,00	-0,031
647,00	0,063
648,00	0,230
649,00	-0,069
650,00	0,126
651,00	0,024
652,00	0,029
653,00	-0,096
654,00	0,042
655,00	-0,036
656,00	0,019
657,00	0,134
658,00	0,051
659,00	0,050
660,00	0,019
661,00	0,186
662,00	0,036
663,00	0,078
664,00	0,215
665,00	0,203
666,00	0,121
667,00	0,105
668,00	0,236
669,00	0,109
670,00	-0,018
671,00	0,163
672,00	0,005
673,00	0,254
674,00	0,129
675,00	0,191
676,00	0,077
677,00	0,042
678,00	0,128
679,00	-0,117
680,00	0,052
681,00	0,226
682,00	0,242
683,00	0,196
684,00	0,085
685,00	0,018
686,00	0,034
687,00	0,155
688,00	-0,170
689,00	0,470
690,00	0,121
691,00	0,083
692,00	0,084
693,00	0,048
694,00	0,178
695,00	0,077
696,00	0,158
697,00	0,049
698,00	0,127
699,00	0,108
700,00	0,224
701,00	0,256
702,00	0,082
703,00	0,191
704,00	0,195
705,00	0,180
706,00	0,412
707,00	0,093
708,00	0,156
709,00	0,210
710,00	0,312
711,00	0,103
712,00	0,242
713,00	0,199
714,00	0,326
715,00	0,325
716,00	0,362
717,00	0,247
718,00	0,352
719,00	0,382
720,00	0,382
721,00	0,437
722,00	0,276
723,00	0,545
724,00	0,643
725,00	0,544
726,00	0,927
727,00	0,701
728,00	0,731
729,00	0,970
730,00	0,886
731,00	0,959
732,00	1,245
733,00	1,115
734,00	1,479
735,00	2,024
736,00	1,898
737,00	2,162
738,00	2,214
739,00	2,551
740,00	2,866
741,00	3,157
742,00	3,638
743,00	3,682
744,00	4,312
745,00	4,620
746,00	5,128
747,00	5,658
748,00	6,254
749,00	6,733
750,00	7,582
751,00	8,263
752,00	8,868
753,00	9,427
754,00	9,913
755,00	10,697
756,00	11,416
757,00	12,492
758,00	13,236
759,00	13,798
760,00	14,633
761,00	15,427
762,00	16,298
763,00	16,973
764,00	17,701
765,00	18,783
766,00	18,880
767,00	19,855
768,00	20,082
769,00	20,530
770,00	21,165
771,00	22,618
772,00	22,577
773,00	22,737
774,00	23,612
775,00	23,823
776,00	24,673
777,00	24,940
778,00	25,688
779,00	26,169
780,00	26,555
781,00	26,968
782,00	27,844
783,00	27,927
784,00	28,214
785,00	29,137
786,00	29,903
787,00	29,781
788,00	30,286
789,00	30,606
790,00	30,894
791,00	30,807
792,00	31,197
793,00	31,513
794,00	31,921
795,00	31,813
796,00	31,759
797,00	31,340
798,00	31,842
799,00	31,580
800,00	31,684
801,00	30,798
802,00	31,454
803,00	31,140
804,00	30,954
805,00	30,591
806,00	30,815
807,00	30,474
808,00	30,408
809,00	30,165
810,00	29,750
811,00	29,656
812,00	29,517
813,00	29,269
814,00	29,115
815,00	28,815
816,00	29,055
817,00	27,904
818,00	27,918
819,00	28,051
820,00	27,938
821,00	28,261
822,00	27,520
823,00	27,319
824,00	27,412
825,00	26,876
826,00	26,404
827,00	26,375
828,00	26,284
829,00	26,613
830,00	26,884
831,00	25,542
832,00	25,479
833,00	25,067
834,00	25,217
835,00	24,494
836,00	25,142
837,00	24,730
838,00	24,516
839,00	24,354
840,00	23,520
841,00	23,852
842,00	23,874
843,00	23,225
844,00	23,363
845,00	22,568
846,00	22,672
847,00	22,469
848,00	22,255
849,00	21,883
850,00	21,684
851,00	21,516
852,00	21,252
853,00	20,369
854,00	20,897
855,00	20,747
856,00	19,927
857,00	20,026
858,00	19,550
859,00	19,734
860,00	19,911
861,00	19,583
862,00	19,583
863,00	19,661
864,00	19,327
865,00	19,356
866,00	19,876
867,00	19,324
868,00	19,824
869,00	19,709
870,00	20,058
871,00	19,505
872,00	19,464
873,00	19,580
874,00	19,646
875,00	19,185
876,00	18,703
877,00	19,367
878,00	19,537
879,00	19,460
880,00	19,469
881,00	19,682
882,00	18,944
883,00	19,080
884,00	19,575
885,00	19,947
886,00	19,368
887,00	19,246
888,00	19,307
889,00	19,417
890,00	19,966
891,00	19,284
892,00	19,194
893,00	19,171
894,00	19,083
895,00	19,258
896,00	19,468
897,00	18,638
898,00	19,029
899,00	20,101
900,00	19,585
901,00	19,562
902,00	19,647
903,00	19,692
904,00	18,956
905,00	19,192
906,00	19,233
907,00	19,344
908,00	19,366
909,00	19,127
910,00	19,233
911,00	19,026
912,00	19,058
913,00	18,920
914,00	18,147
915,00	19,066
916,00	19,327
917,00	18,755
918,00	18,569
919,00	18,975
920,00	18,787
921,00	19,147
922,00	18,881
923,00	19,010
924,00	17,960
925,00	18,637
926,00	19,029
927,00	18,393
928,00	18,568
929,00	18,782
930,00	18,506
931,00	18,381
932,00	17,921
933,00	18,309
934,00	19,122
935,00	18,384
936,00	18,856
937,00	18,352
938,00	18,843
939,00	18,836
940,00	18,007
941,00	18,665
942,00	18,250
943,00	18,323
944,00	18,120
945,00	18,361
946,00	18,854
947,00	17,921
948,00	18,425
949,00	18,157
950,00	18,264
951,00	18,319
952,00	18,389
953,00	17,888
954,00	17,713
955,00	17,987
956,00	18,458
957,00	17,529
958,00	17,312
959,00	18,018
960,00	18,501
961,00	18,402
962,00	17,372
963,00	19,067
964,00	18,371
965,00	18,922
966,00	19,323
967,00	18,518
968,00	17,780
969,00	17,073
970,00	17,667
971,00	18,997
972,00	17,779
973,00	16,489
974,00	18,669
975,00	18,766
976,00	18,630
977,00	18,601
978,00	17,958
979,00	20,212
980,00	18,541
981,00	20,251
982,00	18,180
983,00	19,002
984,00	16,977
985,00	18,732
986,00	18,916
987,00	17,202
988,00	19,838
989,00	17,618
990,00	17,901
991,00	20,642
992,00	21,310
993,00	18,824
994,00	20,356
995,00	19,966
996,00	21,337
997,00	19,117
998,00	19,972
999,00	19,064
1000,00	22,625
>>>>>End Processed Spectral Data<<<<<
