SpectraSuite Datei
++++++++++++++++++++++++++++++++++++
Datum: Mon Feb 18 15:03:55 CET 2019
Benutzer: tu65fis
Dark-Spektrum vorhanden: Ja
Referenz-Spektrum vorhanden: Ja
Zahl der probierten Teilspektren: 1
Spektrometer: USB2G47534
Integrationszeit (usec): 10000 (USB2G47534)
Spektren Durchschnitt berechnet: 1 (USB2G47534)
Boxcar Glättung: 0 (USB2G47534)
Dunkelstromkorrektur: Nein (USB2G47534)
Puls/Lampe aktiviert: Nein (USB2G47534)
Correct for Detector Non-linearity: Nein (USB2G47534)
Streulichtkorrektur: Nein (USB2G47534)
Anzahl Pixel in verarbeitetem Spektrum: 651
>>>>>Begin Processed Spectral Data<<<<<
350,00	-17311,635
351,00	37,996
352,00	-5295,542
353,00	-544,634
354,00	290,331
355,00	259,140
356,00	42,180
357,00	18,135
358,00	-1000,808
359,00	69,828
360,00	769,883
361,00	-156,880
362,00	10,243
363,00	7225,625
364,00	92,103
365,00	149,468
366,00	-336,632
367,00	51,897
368,00	53,044
369,00	-68,677
370,00	1231,304
371,00	-49,505
372,00	-140,946
373,00	69,090
374,00	-97,535
375,00	735,225
376,00	-11,458
377,00	96,345
378,00	37,001
379,00	-759,260
380,00	-66,111
381,00	27,339
382,00	34,277
383,00	31,783
384,00	346,833
385,00	786,980
386,00	-520,120
387,00	-60,952
388,00	-70,708
389,00	-31,493
390,00	-463,893
391,00	31,313
392,00	8,374
393,00	-8,671
394,00	-27,837
395,00	-140,768
396,00	10,364
397,00	6,463
398,00	-6,972
399,00	3,117
400,00	-1,475
401,00	5,170
402,00	-3,653
403,00	-3,603
404,00	0,769
405,00	1,519
406,00	-3,344
407,00	2,383
408,00	5,352
409,00	1,780
410,00	1,102
411,00	3,021
412,00	-1,811
413,00	-3,789
414,00	-0,766
415,00	-3,790
416,00	0,418
417,00	-3,157
418,00	0,842
419,00	-1,151
420,00	1,054
421,00	-3,851
422,00	-3,952
423,00	-1,185
424,00	5,665
425,00	0,173
426,00	-0,841
427,00	-1,383
428,00	-2,291
429,00	-2,163
430,00	0,819
431,00	0,142
432,00	-1,128
433,00	-1,586
434,00	2,171
435,00	-0,462
436,00	-0,827
437,00	0,537
438,00	-1,797
439,00	-0,484
440,00	-0,654
441,00	-1,087
442,00	-0,881
443,00	-0,574
444,00	0,741
445,00	-1,958
446,00	-1,720
447,00	0,550
448,00	0,058
449,00	-0,925
450,00	0,219
451,00	-0,791
452,00	-0,231
453,00	0,054
454,00	0,431
455,00	0,693
456,00	-1,253
457,00	-0,014
458,00	-0,666
459,00	-0,280
460,00	-0,465
461,00	0,189
462,00	-0,085
463,00	1,180
464,00	0,186
465,00	0,473
466,00	0,533
467,00	-0,472
468,00	0,272
469,00	0,566
470,00	-0,513
471,00	0,009
472,00	-0,903
473,00	-0,006
474,00	-0,088
475,00	-0,142
476,00	0,136
477,00	-0,227
478,00	0,178
479,00	0,212
480,00	0,625
481,00	0,410
482,00	0,083
483,00	-0,185
484,00	-0,158
485,00	0,322
486,00	0,420
487,00	-0,133
488,00	0,408
489,00	-0,486
490,00	0,016
491,00	-0,143
492,00	-0,296
493,00	-0,347
494,00	-0,104
495,00	-0,206
496,00	-0,089
497,00	-0,229
498,00	-0,244
499,00	0,072
500,00	-0,366
501,00	0,055
502,00	0,254
503,00	0,070
504,00	0,433
505,00	0,107
506,00	-0,217
507,00	0,277
508,00	0,086
509,00	-0,149
510,00	0,068
511,00	0,210
512,00	0,087
513,00	-0,049
514,00	-0,080
515,00	-0,007
516,00	0,056
517,00	-0,124
518,00	-0,104
519,00	-0,178
520,00	-0,522
521,00	0,009
522,00	0,053
523,00	-0,177
524,00	0,305
525,00	-0,305
526,00	-0,309
527,00	-0,238
528,00	-0,065
529,00	-0,107
530,00	-0,171
531,00	-0,081
532,00	-0,195
533,00	0,087
534,00	-0,293
535,00	-0,065
536,00	-0,203
537,00	-0,181
538,00	-0,240
539,00	-0,127
540,00	0,003
541,00	0,002
542,00	-0,222
543,00	-0,293
544,00	-0,110
545,00	0,046
546,00	-0,116
547,00	-0,013
548,00	0,177
549,00	0,035
550,00	-0,221
551,00	-0,097
552,00	-0,170
553,00	-0,179
554,00	0,008
555,00	-0,163
556,00	-0,036
557,00	0,171
558,00	0,152
559,00	0,054
560,00	-0,248
561,00	-0,187
562,00	-0,174
563,00	-0,068
564,00	-0,197
565,00	-0,235
566,00	-0,159
567,00	-0,012
568,00	0,066
569,00	0,111
570,00	0,143
571,00	0,071
572,00	-0,108
573,00	0,034
574,00	-0,103
575,00	-0,083
576,00	0,092
577,00	-0,132
578,00	-0,144
579,00	-0,230
580,00	-0,035
581,00	0,025
582,00	-0,234
583,00	-0,179
584,00	-0,088
585,00	-0,050
586,00	0,160
587,00	-0,132
588,00	-0,342
589,00	-0,044
590,00	0,002
591,00	-0,084
592,00	-0,154
593,00	-0,110
594,00	0,142
595,00	0,117
596,00	-0,041
597,00	0,029
598,00	0,148
599,00	-0,191
600,00	0,120
601,00	-0,018
602,00	0,044
603,00	-0,105
604,00	-0,119
605,00	0,060
606,00	-0,033
607,00	-0,011
608,00	-0,054
609,00	-0,232
610,00	-0,181
611,00	-0,013
612,00	-0,054
613,00	0,239
614,00	-0,122
615,00	-0,048
616,00	-0,128
617,00	-0,157
618,00	-0,130
619,00	-0,144
620,00	-0,026
621,00	0,038
622,00	-0,194
623,00	-0,151
624,00	0,016
625,00	-0,022
626,00	0,086
627,00	0,060
628,00	0,086
629,00	-0,156
630,00	-0,064
631,00	-0,119
632,00	0,025
633,00	-0,093
634,00	-0,480
635,00	0,019
636,00	0,071
637,00	0,145
638,00	-0,027
639,00	0,007
640,00	0,159
641,00	0,192
642,00	0,135
643,00	0,032
644,00	-0,121
645,00	0,005
646,00	-0,140
647,00	0,217
648,00	0,202
649,00	-0,125
650,00	0,036
651,00	0,035
652,00	-0,066
653,00	-0,116
654,00	-0,072
655,00	-0,208
656,00	0,039
657,00	0,063
658,00	-0,016
659,00	0,119
660,00	0,144
661,00	0,040
662,00	0,173
663,00	0,226
664,00	0,041
665,00	0,199
666,00	-0,043
667,00	0,217
668,00	0,098
669,00	0,214
670,00	-0,119
671,00	0,103
672,00	0,026
673,00	0,342
674,00	0,127
675,00	0,310
676,00	0,127
677,00	0,147
678,00	0,035
679,00	-0,064
680,00	-0,013
681,00	-0,023
682,00	0,240
683,00	0,137
684,00	0,176
685,00	0,105
686,00	0,112
687,00	0,173
688,00	-0,118
689,00	0,175
690,00	0,094
691,00	0,116
692,00	0,202
693,00	0,178
694,00	0,198
695,00	0,003
696,00	0,357
697,00	0,215
698,00	0,367
699,00	0,222
700,00	0,307
701,00	0,479
702,00	0,107
703,00	0,148
704,00	0,244
705,00	0,118
706,00	0,380
707,00	0,225
708,00	0,414
709,00	0,208
710,00	0,323
711,00	0,198
712,00	0,415
713,00	0,045
714,00	0,445
715,00	0,425
716,00	0,509
717,00	0,301
718,00	0,498
719,00	0,685
720,00	0,794
721,00	0,290
722,00	0,480
723,00	0,777
724,00	1,143
725,00	1,003
726,00	1,079
727,00	0,938
728,00	1,398
729,00	1,837
730,00	1,707
731,00	1,731
732,00	2,243
733,00	1,990
734,00	2,521
735,00	3,632
736,00	2,687
737,00	3,401
738,00	3,936
739,00	4,487
740,00	5,205
741,00	5,525
742,00	6,495
743,00	6,971
744,00	8,168
745,00	9,043
746,00	9,959
747,00	10,825
748,00	11,688
749,00	13,073
750,00	14,183
751,00	15,986
752,00	17,202
753,00	19,093
754,00	20,768
755,00	22,186
756,00	23,560
757,00	25,532
758,00	27,873
759,00	29,864
760,00	31,974
761,00	34,603
762,00	36,277
763,00	37,852
764,00	39,796
765,00	42,235
766,00	43,764
767,00	46,112
768,00	48,613
769,00	50,282
770,00	51,954
771,00	53,186
772,00	55,934
773,00	57,301
774,00	59,458
775,00	61,278
776,00	61,456
777,00	63,702
778,00	64,706
779,00	66,387
780,00	68,530
781,00	69,891
782,00	70,616
783,00	71,032
784,00	73,021
785,00	74,423
786,00	73,926
787,00	78,225
788,00	76,889
789,00	79,677
790,00	79,889
791,00	79,997
792,00	79,558
793,00	81,528
794,00	83,018
795,00	82,112
796,00	83,399
797,00	83,279
798,00	84,852
799,00	85,130
800,00	83,889
801,00	83,600
802,00	84,960
803,00	85,745
804,00	85,003
805,00	84,776
806,00	87,068
807,00	89,227
808,00	86,090
809,00	86,934
810,00	88,088
811,00	87,047
812,00	88,002
813,00	88,518
814,00	88,398
815,00	87,838
816,00	86,944
817,00	87,525
818,00	87,175
819,00	89,749
820,00	88,401
821,00	88,464
822,00	89,264
823,00	88,857
824,00	88,681
825,00	90,376
826,00	88,590
827,00	90,973
828,00	88,096
829,00	87,586
830,00	89,536
831,00	91,929
832,00	91,196
833,00	92,261
834,00	90,629
835,00	90,435
836,00	90,970
837,00	92,112
838,00	91,417
839,00	89,435
840,00	89,388
841,00	88,716
842,00	91,431
843,00	91,040
844,00	92,742
845,00	91,403
846,00	93,824
847,00	91,457
848,00	90,453
849,00	90,469
850,00	91,299
851,00	89,711
852,00	91,455
853,00	92,491
854,00	90,684
855,00	89,682
856,00	91,887
857,00	95,592
858,00	91,999
859,00	90,120
860,00	91,456
861,00	88,980
862,00	91,709
863,00	91,054
864,00	91,120
865,00	91,028
866,00	91,544
867,00	92,909
868,00	90,109
869,00	89,853
870,00	92,228
871,00	93,480
872,00	87,756
873,00	90,534
874,00	92,602
875,00	91,911
876,00	89,717
877,00	92,155
878,00	93,112
879,00	90,391
880,00	89,013
881,00	92,799
882,00	92,643
883,00	91,394
884,00	96,031
885,00	94,300
886,00	90,624
887,00	92,162
888,00	94,499
889,00	95,112
890,00	93,975
891,00	90,470
892,00	91,469
893,00	91,469
894,00	90,671
895,00	88,177
896,00	90,411
897,00	92,539
898,00	93,478
899,00	91,940
900,00	94,523
901,00	91,382
902,00	94,492
903,00	89,029
904,00	89,933
905,00	89,957
906,00	90,520
907,00	89,759
908,00	89,546
909,00	89,680
910,00	89,452
911,00	91,525
912,00	87,561
913,00	89,967
914,00	86,188
915,00	88,529
916,00	89,803
917,00	89,998
918,00	90,382
919,00	89,237
920,00	85,501
921,00	85,865
922,00	86,225
923,00	89,914
924,00	88,723
925,00	87,640
926,00	89,497
927,00	89,165
928,00	89,802
929,00	86,219
930,00	87,635
931,00	91,736
932,00	86,422
933,00	83,682
934,00	86,360
935,00	85,608
936,00	87,718
937,00	84,943
938,00	87,291
939,00	87,349
940,00	86,841
941,00	88,124
942,00	87,384
943,00	89,733
944,00	86,055
945,00	86,817
946,00	89,577
947,00	84,836
948,00	81,346
949,00	82,788
950,00	89,374
951,00	81,365
952,00	87,501
953,00	86,033
954,00	83,872
955,00	80,978
956,00	85,358
957,00	90,228
958,00	86,793
959,00	85,532
960,00	81,780
961,00	85,308
962,00	86,553
963,00	81,741
964,00	84,254
965,00	89,176
966,00	93,823
967,00	86,056
968,00	84,406
969,00	85,612
970,00	86,622
971,00	92,715
972,00	84,677
973,00	89,162
974,00	88,755
975,00	88,868
976,00	87,748
977,00	85,419
978,00	87,233
979,00	90,158
980,00	82,973
981,00	85,967
982,00	89,481
983,00	77,163
984,00	84,643
985,00	87,394
986,00	90,702
987,00	93,117
988,00	80,964
989,00	80,423
990,00	88,198
991,00	94,978
992,00	91,579
993,00	81,169
994,00	92,562
995,00	87,112
996,00	80,361
997,00	84,448
998,00	87,423
999,00	73,290
1000,00	82,604
>>>>>End Processed Spectral Data<<<<<
