SpectraSuite Datei
++++++++++++++++++++++++++++++++++++
Datum: Mon Feb 18 15:05:10 CET 2019
Benutzer: tu65fis
Dark-Spektrum vorhanden: Ja
Referenz-Spektrum vorhanden: Ja
Zahl der probierten Teilspektren: 1
Spektrometer: USB2G47534
Integrationszeit (usec): 10000 (USB2G47534)
Spektren Durchschnitt berechnet: 1 (USB2G47534)
Boxcar Glättung: 0 (USB2G47534)
Dunkelstromkorrektur: Nein (USB2G47534)
Puls/Lampe aktiviert: Nein (USB2G47534)
Correct for Detector Non-linearity: Nein (USB2G47534)
Streulichtkorrektur: Nein (USB2G47534)
Anzahl Pixel in verarbeitetem Spektrum: 651
>>>>>Begin Processed Spectral Data<<<<<
350,00	3056,725
351,00	49,960
352,00	-11917,895
353,00	-224,251
354,00	201,087
355,00	67,880
356,00	38,429
357,00	13,119
358,00	-1895,392
359,00	-132,907
360,00	392,837
361,00	-168,031
362,00	16,211
363,00	10708,426
364,00	79,787
365,00	130,537
366,00	-584,723
367,00	-98,266
368,00	113,403
369,00	10,447
370,00	-156,675
371,00	100,656
372,00	-72,890
373,00	-23,898
374,00	-58,858
375,00	232,761
376,00	58,226
377,00	87,300
378,00	41,615
379,00	-280,748
380,00	-36,123
381,00	-6,561
382,00	79,512
383,00	69,979
384,00	-49,084
385,00	1396,798
386,00	-126,839
387,00	-754,053
388,00	-5,446
389,00	-23,018
390,00	-547,510
391,00	84,791
392,00	41,505
393,00	-34,648
394,00	-37,713
395,00	-100,505
396,00	-4,503
397,00	18,171
398,00	4,569
399,00	2,957
400,00	-2,308
401,00	16,889
402,00	-12,748
403,00	0,653
404,00	2,617
405,00	6,976
406,00	-7,190
407,00	3,382
408,00	4,885
409,00	5,091
410,00	-2,362
411,00	0,825
412,00	-1,159
413,00	-0,163
414,00	-3,215
415,00	-0,319
416,00	3,985
417,00	-0,699
418,00	0,994
419,00	-3,299
420,00	0,929
421,00	-0,904
422,00	-2,661
423,00	-0,237
424,00	5,397
425,00	-1,044
426,00	-0,832
427,00	0,105
428,00	-2,034
429,00	0,190
430,00	3,351
431,00	2,353
432,00	0,727
433,00	-0,566
434,00	2,635
435,00	-1,529
436,00	0,037
437,00	1,154
438,00	0,272
439,00	0,366
440,00	0,851
441,00	0,276
442,00	-0,856
443,00	-0,491
444,00	1,106
445,00	-1,784
446,00	-1,048
447,00	-1,313
448,00	0,976
449,00	0,622
450,00	0,363
451,00	-0,081
452,00	-0,684
453,00	0,632
454,00	0,816
455,00	-0,320
456,00	-0,816
457,00	-0,026
458,00	-0,064
459,00	-0,850
460,00	-0,275
461,00	-0,518
462,00	0,996
463,00	-0,942
464,00	-0,474
465,00	0,315
466,00	0,643
467,00	-0,302
468,00	-0,723
469,00	0,513
470,00	0,403
471,00	0,957
472,00	-0,584
473,00	-0,093
474,00	-0,404
475,00	-0,361
476,00	0,457
477,00	-0,156
478,00	0,614
479,00	0,067
480,00	0,196
481,00	0,563
482,00	0,348
483,00	-0,427
484,00	0,360
485,00	0,361
486,00	0,262
487,00	0,052
488,00	0,288
489,00	-0,314
490,00	0,459
491,00	-0,064
492,00	0,046
493,00	-0,008
494,00	-0,019
495,00	0,156
496,00	0,001
497,00	-0,114
498,00	0,047
499,00	0,223
500,00	-0,057
501,00	0,170
502,00	0,089
503,00	-0,317
504,00	0,394
505,00	0,055
506,00	-0,161
507,00	-0,042
508,00	0,102
509,00	-0,254
510,00	-0,158
511,00	0,068
512,00	-0,006
513,00	0,050
514,00	-0,035
515,00	0,226
516,00	0,253
517,00	-0,234
518,00	-0,140
519,00	-0,008
520,00	-0,404
521,00	-0,136
522,00	0,270
523,00	-0,252
524,00	0,170
525,00	-0,025
526,00	0,067
527,00	-0,267
528,00	0,154
529,00	-0,212
530,00	0,127
531,00	0,151
532,00	0,183
533,00	0,254
534,00	-0,144
535,00	0,186
536,00	0,167
537,00	0,072
538,00	0,066
539,00	0,155
540,00	0,079
541,00	0,057
542,00	-0,287
543,00	-0,178
544,00	0,083
545,00	0,047
546,00	-0,081
547,00	0,100
548,00	0,262
549,00	-0,027
550,00	0,013
551,00	0,054
552,00	0,107
553,00	0,101
554,00	0,212
555,00	0,094
556,00	0,063
557,00	0,163
558,00	0,144
559,00	0,108
560,00	-0,079
561,00	-0,060
562,00	0,017
563,00	0,178
564,00	-0,040
565,00	0,094
566,00	0,008
567,00	0,258
568,00	-0,044
569,00	0,136
570,00	0,198
571,00	0,114
572,00	0,183
573,00	0,162
574,00	0,188
575,00	0,194
576,00	0,322
577,00	0,160
578,00	0,257
579,00	0,241
580,00	0,358
581,00	0,322
582,00	0,704
583,00	0,785
584,00	0,915
585,00	1,355
586,00	1,568
587,00	1,784
588,00	2,135
589,00	2,752
590,00	3,448
591,00	4,150
592,00	5,134
593,00	6,405
594,00	7,878
595,00	8,990
596,00	11,108
597,00	13,438
598,00	15,627
599,00	17,665
600,00	20,608
601,00	24,277
602,00	28,222
603,00	31,284
604,00	34,284
605,00	38,907
606,00	42,699
607,00	45,342
608,00	49,134
609,00	52,987
610,00	56,005
611,00	59,200
612,00	62,348
613,00	65,083
614,00	67,902
615,00	70,927
616,00	72,043
617,00	74,022
618,00	76,569
619,00	77,208
620,00	79,586
621,00	80,835
622,00	81,941
623,00	82,606
624,00	82,797
625,00	84,866
626,00	85,614
627,00	84,699
628,00	86,265
629,00	88,001
630,00	87,549
631,00	88,151
632,00	89,464
633,00	89,432
634,00	90,150
635,00	88,198
636,00	89,165
637,00	90,092
638,00	89,699
639,00	90,793
640,00	89,982
641,00	91,316
642,00	89,600
643,00	90,221
644,00	90,842
645,00	89,403
646,00	89,752
647,00	89,623
648,00	89,760
649,00	91,251
650,00	90,677
651,00	91,279
652,00	91,309
653,00	91,179
654,00	90,751
655,00	90,642
656,00	91,680
657,00	91,868
658,00	90,463
659,00	92,782
660,00	91,534
661,00	91,533
662,00	91,753
663,00	93,215
664,00	90,353
665,00	91,155
666,00	91,137
667,00	91,200
668,00	92,317
669,00	91,527
670,00	90,449
671,00	91,801
672,00	91,708
673,00	91,147
674,00	92,113
675,00	92,343
676,00	91,555
677,00	91,025
678,00	90,652
679,00	91,966
680,00	91,374
681,00	89,895
682,00	91,237
683,00	93,105
684,00	92,417
685,00	91,963
686,00	92,301
687,00	92,520
688,00	92,498
689,00	91,010
690,00	91,953
691,00	92,347
692,00	90,704
693,00	91,337
694,00	91,818
695,00	90,747
696,00	91,659
697,00	92,296
698,00	92,218
699,00	91,489
700,00	91,752
701,00	91,966
702,00	90,726
703,00	92,139
704,00	90,540
705,00	91,855
706,00	91,933
707,00	92,798
708,00	92,199
709,00	91,350
710,00	92,308
711,00	91,169
712,00	92,450
713,00	91,928
714,00	91,202
715,00	92,223
716,00	92,372
717,00	91,902
718,00	92,812
719,00	91,504
720,00	91,384
721,00	93,129
722,00	91,941
723,00	92,150
724,00	92,134
725,00	91,826
726,00	90,695
727,00	91,706
728,00	92,569
729,00	93,522
730,00	92,368
731,00	92,301
732,00	91,884
733,00	91,477
734,00	91,753
735,00	92,038
736,00	92,817
737,00	92,429
738,00	92,483
739,00	93,112
740,00	90,976
741,00	91,690
742,00	91,042
743,00	92,556
744,00	91,604
745,00	92,471
746,00	91,214
747,00	90,942
748,00	91,397
749,00	91,644
750,00	93,006
751,00	92,546
752,00	92,623
753,00	90,948
754,00	92,531
755,00	91,349
756,00	91,670
757,00	91,498
758,00	92,171
759,00	93,380
760,00	92,086
761,00	92,148
762,00	91,704
763,00	92,333
764,00	91,581
765,00	93,397
766,00	93,375
767,00	91,516
768,00	92,249
769,00	91,068
770,00	94,506
771,00	91,557
772,00	92,762
773,00	90,890
774,00	91,460
775,00	93,516
776,00	93,073
777,00	90,757
778,00	91,518
779,00	92,370
780,00	92,407
781,00	91,887
782,00	90,375
783,00	90,587
784,00	90,328
785,00	92,116
786,00	90,657
787,00	91,826
788,00	91,174
789,00	92,692
790,00	92,723
791,00	92,130
792,00	89,487
793,00	91,030
794,00	89,889
795,00	90,051
796,00	91,206
797,00	92,334
798,00	92,280
799,00	93,704
800,00	90,992
801,00	89,585
802,00	91,780
803,00	91,846
804,00	89,124
805,00	89,800
806,00	91,139
807,00	91,161
808,00	91,454
809,00	89,281
810,00	90,231
811,00	90,937
812,00	91,288
813,00	92,646
814,00	91,065
815,00	90,134
816,00	90,300
817,00	90,554
818,00	89,581
819,00	90,867
820,00	90,826
821,00	91,107
822,00	91,880
823,00	90,584
824,00	91,090
825,00	92,362
826,00	90,710
827,00	92,931
828,00	91,717
829,00	90,794
830,00	91,814
831,00	92,210
832,00	93,965
833,00	94,380
834,00	91,546
835,00	91,549
836,00	90,261
837,00	93,266
838,00	92,133
839,00	91,319
840,00	91,684
841,00	89,385
842,00	92,272
843,00	92,282
844,00	91,464
845,00	90,992
846,00	94,734
847,00	92,090
848,00	92,728
849,00	94,594
850,00	89,076
851,00	92,611
852,00	91,550
853,00	89,147
854,00	91,117
855,00	89,196
856,00	92,077
857,00	92,856
858,00	91,981
859,00	91,420
860,00	90,717
861,00	91,252
862,00	90,265
863,00	90,915
864,00	91,863
865,00	91,943
866,00	91,264
867,00	92,321
868,00	91,109
869,00	88,403
870,00	92,613
871,00	93,271
872,00	89,105
873,00	91,116
874,00	95,215
875,00	94,352
876,00	89,210
877,00	92,393
878,00	91,502
879,00	91,641
880,00	90,011
881,00	88,326
882,00	91,843
883,00	91,574
884,00	93,747
885,00	87,760
886,00	93,039
887,00	90,029
888,00	92,265
889,00	94,167
890,00	90,814
891,00	92,521
892,00	90,436
893,00	90,493
894,00	89,407
895,00	90,307
896,00	88,680
897,00	92,642
898,00	92,421
899,00	91,014
900,00	90,826
901,00	89,418
902,00	92,067
903,00	91,044
904,00	89,609
905,00	89,119
906,00	88,818
907,00	87,974
908,00	91,497
909,00	89,095
910,00	88,277
911,00	89,240
912,00	89,316
913,00	86,279
914,00	90,027
915,00	87,779
916,00	90,046
917,00	87,880
918,00	86,114
919,00	84,561
920,00	85,553
921,00	83,816
922,00	85,868
923,00	89,172
924,00	86,159
925,00	86,382
926,00	87,881
927,00	89,401
928,00	89,518
929,00	87,046
930,00	84,660
931,00	85,904
932,00	83,731
933,00	85,615
934,00	84,688
935,00	85,481
936,00	83,232
937,00	82,114
938,00	84,107
939,00	86,927
940,00	81,846
941,00	86,829
942,00	83,711
943,00	87,314
944,00	82,948
945,00	81,521
946,00	88,025
947,00	81,970
948,00	77,349
949,00	80,895
950,00	83,228
951,00	82,085
952,00	84,111
953,00	81,418
954,00	78,464
955,00	78,374
956,00	82,588
957,00	80,987
958,00	81,623
959,00	83,493
960,00	80,840
961,00	79,658
962,00	83,727
963,00	82,604
964,00	80,266
965,00	83,673
966,00	85,555
967,00	87,860
968,00	88,129
969,00	83,783
970,00	83,507
971,00	89,622
972,00	82,886
973,00	84,363
974,00	83,699
975,00	84,011
976,00	83,624
977,00	81,810
978,00	83,396
979,00	84,545
980,00	80,017
981,00	79,587
982,00	76,952
983,00	79,840
984,00	86,911
985,00	87,503
986,00	89,898
987,00	84,975
988,00	80,621
989,00	77,410
990,00	85,123
991,00	85,415
992,00	86,887
993,00	82,974
994,00	77,110
995,00	85,755
996,00	84,191
997,00	84,269
998,00	78,830
999,00	84,756
1000,00	84,864
>>>>>End Processed Spectral Data<<<<<
