SpectraSuite Datei
++++++++++++++++++++++++++++++++++++
Datum: Mon Feb 18 15:01:39 CET 2019
Benutzer: tu65fis
Dark-Spektrum vorhanden: Ja
Referenz-Spektrum vorhanden: Ja
Zahl der probierten Teilspektren: 1
Spektrometer: USB2G47534
Integrationszeit (usec): 10000 (USB2G47534)
Spektren Durchschnitt berechnet: 1 (USB2G47534)
Boxcar Glättung: 0 (USB2G47534)
Dunkelstromkorrektur: Nein (USB2G47534)
Puls/Lampe aktiviert: Nein (USB2G47534)
Correct for Detector Non-linearity: Nein (USB2G47534)
Streulichtkorrektur: Nein (USB2G47534)
Anzahl Pixel in verarbeitetem Spektrum: 651
>>>>>Begin Processed Spectral Data<<<<<
350,00	5839,864
351,00	6,169
352,00	-6737,132
353,00	438,686
354,00	85,743
355,00	111,374
356,00	318,362
357,00	90,173
358,00	-312,479
359,00	18,080
360,00	805,958
361,00	-335,495
362,00	45,643
363,00	24928,587
364,00	39,511
365,00	159,337
366,00	167,272
367,00	230,668
368,00	50,135
369,00	61,019
370,00	-201,362
371,00	-0,332
372,00	-68,312
373,00	2,159
374,00	-24,024
375,00	288,498
376,00	54,692
377,00	70,569
378,00	50,337
379,00	-319,864
380,00	19,439
381,00	-15,904
382,00	198,849
383,00	57,032
384,00	519,964
385,00	925,157
386,00	-523,894
387,00	-792,204
388,00	3,561
389,00	-170,805
390,00	-135,046
391,00	54,700
392,00	43,216
393,00	-53,862
394,00	-22,611
395,00	-35,168
396,00	10,046
397,00	15,744
398,00	9,100
399,00	5,427
400,00	-3,495
401,00	11,097
402,00	-6,214
403,00	-3,254
404,00	-2,917
405,00	2,691
406,00	-1,174
407,00	2,518
408,00	4,399
409,00	5,201
410,00	3,530
411,00	2,746
412,00	-0,415
413,00	4,459
414,00	-0,364
415,00	-1,180
416,00	2,878
417,00	0,827
418,00	0,831
419,00	-0,419
420,00	-0,124
421,00	-0,004
422,00	-0,265
423,00	0,210
424,00	5,328
425,00	2,185
426,00	0,274
427,00	-0,029
428,00	-0,177
429,00	2,262
430,00	0,790
431,00	1,360
432,00	2,605
433,00	-0,458
434,00	1,847
435,00	0,126
436,00	1,081
437,00	-1,233
438,00	-0,019
439,00	1,005
440,00	1,160
441,00	1,854
442,00	0,272
443,00	-0,077
444,00	0,558
445,00	-0,544
446,00	-1,155
447,00	0,303
448,00	-0,223
449,00	1,186
450,00	1,479
451,00	3,072
452,00	0,328
453,00	0,658
454,00	0,605
455,00	0,988
456,00	-0,486
457,00	1,585
458,00	-0,203
459,00	0,569
460,00	-0,163
461,00	0,170
462,00	0,953
463,00	-0,249
464,00	0,633
465,00	0,988
466,00	0,869
467,00	-0,390
468,00	0,068
469,00	0,519
470,00	0,949
471,00	0,160
472,00	-0,714
473,00	0,150
474,00	-0,028
475,00	-0,012
476,00	1,186
477,00	0,451
478,00	0,707
479,00	0,099
480,00	0,262
481,00	0,110
482,00	0,451
483,00	-0,322
484,00	-0,107
485,00	-0,981
486,00	0,333
487,00	0,438
488,00	0,352
489,00	0,057
490,00	0,035
491,00	0,033
492,00	-0,102
493,00	0,365
494,00	-0,009
495,00	0,208
496,00	0,117
497,00	0,189
498,00	-0,025
499,00	0,420
500,00	0,009
501,00	0,113
502,00	0,491
503,00	0,141
504,00	0,595
505,00	-0,104
506,00	0,004
507,00	0,117
508,00	0,120
509,00	-0,149
510,00	0,289
511,00	0,159
512,00	0,346
513,00	0,447
514,00	0,299
515,00	0,264
516,00	0,484
517,00	0,190
518,00	0,529
519,00	0,213
520,00	0,082
521,00	0,448
522,00	0,721
523,00	0,609
524,00	1,120
525,00	0,963
526,00	1,548
527,00	1,780
528,00	2,611
529,00	2,875
530,00	3,951
531,00	4,836
532,00	5,950
533,00	7,170
534,00	8,583
535,00	10,366
536,00	12,180
537,00	14,238
538,00	17,223
539,00	19,876
540,00	22,827
541,00	25,472
542,00	28,054
543,00	31,131
544,00	35,109
545,00	38,229
546,00	41,033
547,00	44,086
548,00	47,545
549,00	50,952
550,00	53,601
551,00	56,037
552,00	57,296
553,00	60,518
554,00	62,746
555,00	65,064
556,00	66,217
557,00	67,556
558,00	69,492
559,00	71,504
560,00	71,554
561,00	73,708
562,00	74,788
563,00	75,046
564,00	75,622
565,00	77,050
566,00	77,276
567,00	77,661
568,00	76,710
569,00	79,238
570,00	79,489
571,00	78,572
572,00	79,635
573,00	79,869
574,00	81,066
575,00	80,372
576,00	80,929
577,00	81,074
578,00	79,714
579,00	80,105
580,00	80,711
581,00	81,493
582,00	81,412
583,00	81,661
584,00	81,296
585,00	81,588
586,00	81,762
587,00	81,377
588,00	81,568
589,00	81,190
590,00	81,752
591,00	81,854
592,00	81,156
593,00	81,600
594,00	82,513
595,00	81,870
596,00	82,103
597,00	83,090
598,00	82,454
599,00	82,666
600,00	81,656
601,00	82,748
602,00	82,778
603,00	82,947
604,00	81,154
605,00	82,714
606,00	83,892
607,00	82,088
608,00	82,782
609,00	81,531
610,00	81,869
611,00	82,407
612,00	82,144
613,00	83,105
614,00	81,740
615,00	81,971
616,00	81,822
617,00	81,837
618,00	82,835
619,00	81,804
620,00	83,635
621,00	83,183
622,00	82,302
623,00	82,256
624,00	83,065
625,00	83,578
626,00	82,987
627,00	82,292
628,00	82,797
629,00	83,312
630,00	83,995
631,00	83,053
632,00	84,219
633,00	84,038
634,00	84,269
635,00	81,960
636,00	83,021
637,00	83,202
638,00	83,219
639,00	83,426
640,00	83,123
641,00	84,485
642,00	83,011
643,00	82,141
644,00	83,767
645,00	82,985
646,00	83,436
647,00	82,398
648,00	83,405
649,00	84,257
650,00	83,168
651,00	82,841
652,00	82,952
653,00	82,465
654,00	84,152
655,00	83,566
656,00	83,664
657,00	84,162
658,00	82,788
659,00	84,937
660,00	84,635
661,00	84,485
662,00	83,556
663,00	83,611
664,00	82,039
665,00	82,031
666,00	83,022
667,00	83,228
668,00	84,537
669,00	84,159
670,00	83,468
671,00	83,494
672,00	83,954
673,00	83,838
674,00	82,970
675,00	83,013
676,00	83,314
677,00	83,044
678,00	84,821
679,00	83,209
680,00	83,630
681,00	83,064
682,00	83,840
683,00	84,119
684,00	83,485
685,00	82,841
686,00	84,583
687,00	85,068
688,00	84,006
689,00	83,607
690,00	83,245
691,00	84,099
692,00	82,686
693,00	82,972
694,00	83,951
695,00	83,483
696,00	82,930
697,00	83,478
698,00	84,700
699,00	83,442
700,00	84,315
701,00	83,673
702,00	82,409
703,00	84,304
704,00	83,763
705,00	83,735
706,00	82,813
707,00	83,746
708,00	84,177
709,00	83,201
710,00	84,112
711,00	82,630
712,00	83,637
713,00	83,471
714,00	83,663
715,00	84,612
716,00	84,288
717,00	82,335
718,00	82,688
719,00	82,460
720,00	82,614
721,00	83,030
722,00	83,671
723,00	83,418
724,00	83,607
725,00	84,507
726,00	83,187
727,00	83,246
728,00	82,361
729,00	83,501
730,00	83,883
731,00	85,439
732,00	84,518
733,00	84,038
734,00	84,293
735,00	82,984
736,00	84,747
737,00	84,864
738,00	83,393
739,00	84,057
740,00	83,002
741,00	85,515
742,00	82,115
743,00	83,249
744,00	83,831
745,00	84,110
746,00	84,136
747,00	83,407
748,00	83,209
749,00	83,340
750,00	82,279
751,00	82,809
752,00	83,021
753,00	83,447
754,00	84,465
755,00	81,650
756,00	82,640
757,00	82,516
758,00	85,565
759,00	84,052
760,00	84,215
761,00	84,335
762,00	83,723
763,00	83,774
764,00	84,789
765,00	83,892
766,00	84,176
767,00	82,619
768,00	83,699
769,00	83,426
770,00	85,225
771,00	82,565
772,00	85,022
773,00	83,344
774,00	84,500
775,00	85,193
776,00	83,827
777,00	82,657
778,00	82,518
779,00	83,113
780,00	83,904
781,00	84,166
782,00	82,292
783,00	84,344
784,00	82,723
785,00	84,287
786,00	82,450
787,00	83,364
788,00	83,885
789,00	84,343
790,00	84,560
791,00	82,599
792,00	82,933
793,00	81,749
794,00	82,892
795,00	83,868
796,00	83,176
797,00	84,883
798,00	84,054
799,00	84,727
800,00	81,906
801,00	81,890
802,00	84,202
803,00	84,791
804,00	83,248
805,00	81,526
806,00	84,352
807,00	82,468
808,00	83,361
809,00	81,998
810,00	82,096
811,00	82,195
812,00	82,932
813,00	82,089
814,00	84,426
815,00	82,092
816,00	82,332
817,00	82,701
818,00	82,831
819,00	83,540
820,00	82,638
821,00	82,930
822,00	85,327
823,00	82,851
824,00	83,029
825,00	82,254
826,00	82,568
827,00	83,006
828,00	82,015
829,00	83,760
830,00	83,793
831,00	85,457
832,00	85,987
833,00	85,100
834,00	82,652
835,00	83,658
836,00	83,328
837,00	85,436
838,00	85,356
839,00	83,790
840,00	81,163
841,00	82,419
842,00	83,193
843,00	83,343
844,00	84,351
845,00	82,658
846,00	84,516
847,00	85,016
848,00	83,409
849,00	82,655
850,00	82,974
851,00	84,650
852,00	84,740
853,00	83,809
854,00	85,161
855,00	82,165
856,00	82,223
857,00	83,299
858,00	84,132
859,00	82,809
860,00	82,331
861,00	80,904
862,00	82,358
863,00	84,652
864,00	84,701
865,00	84,270
866,00	84,183
867,00	84,408
868,00	84,727
869,00	82,315
870,00	85,320
871,00	85,248
872,00	84,366
873,00	84,463
874,00	87,083
875,00	85,009
876,00	82,484
877,00	84,554
878,00	84,274
879,00	83,806
880,00	82,664
881,00	82,491
882,00	85,418
883,00	85,024
884,00	87,895
885,00	85,416
886,00	82,926
887,00	82,678
888,00	87,257
889,00	86,761
890,00	87,712
891,00	84,776
892,00	83,786
893,00	86,320
894,00	82,704
895,00	85,163
896,00	82,707
897,00	84,662
898,00	87,719
899,00	86,307
900,00	84,198
901,00	84,575
902,00	84,330
903,00	82,193
904,00	84,217
905,00	81,665
906,00	82,331
907,00	84,347
908,00	84,944
909,00	83,965
910,00	81,372
911,00	81,130
912,00	83,808
913,00	81,823
914,00	80,990
915,00	78,919
916,00	82,376
917,00	83,578
918,00	81,837
919,00	79,620
920,00	76,856
921,00	77,856
922,00	84,144
923,00	82,172
924,00	79,843
925,00	77,115
926,00	83,555
927,00	84,061
928,00	84,199
929,00	82,894
930,00	81,106
931,00	81,347
932,00	83,417
933,00	78,866
934,00	80,803
935,00	80,093
936,00	84,023
937,00	80,591
938,00	82,744
939,00	80,703
940,00	81,159
941,00	84,438
942,00	79,441
943,00	81,517
944,00	79,878
945,00	82,796
946,00	85,426
947,00	78,161
948,00	82,520
949,00	77,958
950,00	81,310
951,00	81,009
952,00	85,575
953,00	79,164
954,00	81,681
955,00	75,653
956,00	82,305
957,00	83,420
958,00	77,193
959,00	80,604
960,00	81,971
961,00	84,003
962,00	80,892
963,00	85,291
964,00	80,079
965,00	83,371
966,00	88,162
967,00	88,352
968,00	79,895
969,00	81,096
970,00	79,254
971,00	82,072
972,00	82,531
973,00	76,035
974,00	80,089
975,00	83,180
976,00	83,704
977,00	84,887
978,00	81,341
979,00	81,711
980,00	86,021
981,00	82,747
982,00	77,175
983,00	79,069
984,00	83,033
985,00	87,706
986,00	80,724
987,00	83,257
988,00	81,933
989,00	75,574
990,00	93,263
991,00	96,478
992,00	88,975
993,00	82,878
994,00	78,904
995,00	85,068
996,00	78,259
997,00	81,490
998,00	85,607
999,00	70,932
1000,00	91,222
>>>>>End Processed Spectral Data<<<<<
